NO_OF_FRAMES	2449
NO_OF_CAMERAS	2
NO_OF_MARKERS	6
FREQUENCY	500
NO_OF_ANALOG	0
ANALOG_FREQUENCY	0
DESCRIPTION	--
TIME_STAMP	2023-09-23, 14:40:12.023	133893.36077270
DATA_INCLUDED	3D
MARKER_NAMES	New 0000	New 0001	New 0002	New 0003	New 0004	New 0005
TRAJECTORY_TYPES	Measured	Measured	Measured	Measured	Mixed	Mixed
New 0000 X	New 0000 Y	New 0000 Z	New 0001 X	New 0001 Y	New 0001 Z	New 0002 X	New 0002 Y	New 0002 Z	New 0003 X	New 0003 Y	New 0003 Z	New 0004 X	New 0004 Y	New 0004 Z	New 0005 X	New 0005 Y	New 0005 Z	
214.913	109.008	-15.159	216.333	145.047	-15.215	353.259	42.392	-13.875	350.763	0.315	-13.936	252.905	120.650	-14.993	319.372	22.242	-14.181
214.869	108.948	-15.166	216.236	144.970	-15.214	353.249	42.410	-13.891	350.780	0.316	-13.937	252.842	120.615	-15.000	319.354	22.229	-14.180
214.836	108.877	-15.158	216.160	144.883	-15.214	353.249	42.410	-13.891	350.771	0.323	-13.952	252.806	120.601	-14.996	319.354	22.253	-14.181
214.811	108.829	-15.169	216.074	144.803	-15.198	353.257	42.419	-13.908	350.763	0.316	-13.936	252.754	120.562	-14.988	319.363	22.252	-14.197
214.786	108.774	-15.179	215.987	144.732	-15.213	353.249	42.395	-13.891	350.763	0.316	-13.936	252.702	120.515	-14.980	319.354	22.245	-14.212
214.761	108.704	-15.188	215.921	144.650	-15.200	353.267	42.402	-13.891	350.754	0.316	-13.952	252.658	120.477	-14.990	319.354	22.244	-14.212
214.735	108.644	-15.198	215.848	144.526	-15.186	353.268	42.387	-13.891	350.754	0.316	-13.952	252.607	120.436	-14.982	319.354	22.252	-14.212
214.701	108.553	-15.191	215.764	144.429	-15.200	353.267	42.395	-13.892	350.754	0.308	-13.951	252.564	120.411	-14.960	319.362	22.260	-14.197
214.679	108.441	-15.199	215.693	144.370	-15.219	353.267	42.395	-13.892	350.754	0.308	-13.951	252.521	120.364	-14.938	319.363	22.252	-14.197
214.645	108.341	-15.192	215.623	144.308	-15.237	353.267	42.395	-13.892	350.754	0.308	-13.951	252.469	120.309	-14.930	319.353	22.260	-14.212
214.621	108.234	-15.201	215.555	144.229	-15.224	353.277	42.378	-13.875	350.745	0.309	-13.936	252.427	120.290	-14.908	319.354	22.260	-14.181
214.605	108.142	-15.196	215.484	144.183	-15.243	353.267	42.395	-13.892	350.754	0.307	-13.951	252.375	120.264	-14.900	319.362	22.266	-14.197
214.578	108.054	-15.206	215.432	144.128	-15.264	353.276	42.401	-13.876	350.737	0.308	-13.950	252.333	120.230	-14.878	319.362	22.260	-14.197
214.553	107.999	-15.216	215.372	144.057	-15.268	353.285	42.395	-13.892	350.745	0.308	-13.935	252.283	120.187	-14.870	319.362	22.275	-14.197
214.520	107.943	-15.209	215.310	144.012	-15.273	353.275	42.404	-13.908	350.736	0.316	-13.951	252.231	120.170	-14.863	319.361	22.278	-14.198
214.485	107.896	-15.233	215.217	143.930	-15.271	353.294	42.395	-13.877	350.736	0.316	-13.951	252.180	120.142	-14.855	319.362	22.282	-14.197
214.435	107.825	-15.222	215.135	143.800	-15.270	353.294	42.395	-13.877	350.727	0.316	-13.935	252.138	120.107	-14.864	319.362	22.282	-14.197
214.402	107.753	-15.215	215.060	143.717	-15.271	353.294	42.393	-13.876	350.727	0.316	-13.935	252.085	120.084	-14.888	319.362	22.291	-14.198
214.351	107.683	-15.205	214.975	143.665	-15.255	353.303	42.379	-13.892	350.736	0.316	-13.920	252.036	120.013	-14.880	319.371	22.291	-14.183
214.318	107.612	-15.197	214.908	143.598	-15.242	353.302	42.404	-13.893	350.727	0.316	-13.935	251.980	119.955	-14.872	319.362	22.291	-14.198
214.275	107.544	-15.204	214.823	143.540	-15.226	353.312	42.387	-13.877	350.727	0.331	-13.935	251.935	119.941	-14.913	319.371	22.290	-14.183
214.241	107.466	-15.197	214.744	143.404	-15.226	353.302	42.404	-13.893	350.719	0.315	-13.919	251.898	119.921	-14.940	319.371	22.303	-14.182
214.196	107.371	-15.203	214.658	143.333	-15.210	353.312	42.387	-13.877	350.736	0.323	-13.920	251.853	119.902	-14.949	319.380	22.297	-14.167
214.164	107.269	-15.195	214.590	143.269	-15.197	353.311	42.404	-13.878	350.719	0.323	-13.919	251.799	119.881	-14.973	319.370	22.306	-14.183
214.114	107.204	-15.185	214.511	143.199	-15.198	353.320	42.412	-13.894	350.719	0.323	-13.919	251.763	119.860	-15.000	319.370	22.312	-14.183
214.091	107.139	-15.163	214.450	143.145	-15.202	353.311	42.404	-13.878	350.718	0.338	-13.919	251.717	119.856	-15.041	319.371	22.310	-14.182
214.049	107.068	-15.170	214.390	143.089	-15.206	353.321	42.387	-13.862	350.710	0.323	-13.934	251.682	119.818	-15.036	319.370	22.328	-14.183
214.015	106.999	-15.194	214.330	143.033	-15.242	353.320	42.412	-13.894	350.710	0.330	-13.934	251.646	119.789	-15.031	319.371	22.325	-14.182
213.973	106.935	-15.169	214.270	142.969	-15.246	353.319	42.420	-13.894	350.710	0.330	-13.903	251.594	119.765	-15.023	319.370	22.334	-14.183
213.932	106.871	-15.145	214.191	142.871	-15.246	353.328	42.411	-13.878	350.701	0.338	-13.918	251.551	119.731	-15.032	319.370	22.334	-14.183
213.897	106.795	-15.138	214.114	142.777	-15.247	353.337	42.412	-13.894	350.710	0.337	-13.934	251.499	119.691	-14.993	319.388	22.334	-14.184
213.865	106.724	-15.130	214.034	142.666	-15.247	353.347	42.395	-13.878	350.701	0.330	-13.918	251.457	119.649	-14.971	319.370	22.341	-14.183
213.840	106.654	-15.140	213.965	142.595	-15.265	353.337	42.412	-13.894	350.701	0.338	-13.918	251.409	119.573	-14.962	319.388	22.341	-14.184
213.818	106.571	-15.118	213.886	142.541	-15.266	353.337	42.428	-13.894	350.701	0.337	-13.918	251.375	119.533	-14.957	319.370	22.356	-14.183
213.794	106.499	-15.127	213.818	142.477	-15.284	353.337	42.419	-13.894	350.692	0.337	-13.933	251.314	119.516	-14.933	319.370	22.365	-14.183
213.774	106.392	-15.104	213.752	142.392	-15.271	353.347	42.402	-13.878	350.683	0.345	-13.918	251.271	119.461	-14.941	319.378	22.380	-14.200
213.740	106.336	-15.128	213.665	142.315	-15.254	353.337	42.428	-13.894	350.692	0.337	-13.933	251.211	119.436	-14.917	319.378	22.381	-14.200
213.720	106.231	-15.155	213.580	142.249	-15.238	353.347	42.412	-13.909	350.683	0.352	-13.917	251.158	119.419	-14.910	319.369	22.389	-14.184
213.693	106.156	-15.165	213.501	142.180	-15.239	353.356	42.411	-13.894	350.683	0.345	-13.918	251.096	119.367	-14.917	319.368	22.398	-14.184
213.659	106.074	-15.158	213.424	142.116	-15.209	353.355	42.420	-13.895	350.674	0.360	-13.902	251.035	119.335	-14.923	319.368	22.399	-14.216
213.624	105.985	-15.150	213.353	142.063	-15.196	353.346	42.428	-13.910	350.683	0.345	-13.918	250.975	119.308	-14.899	319.368	22.407	-14.185
213.598	105.924	-15.160	213.286	141.982	-15.213	353.354	42.438	-13.927	350.683	0.345	-13.918	250.912	119.294	-14.938	319.368	22.413	-14.185
213.563	105.863	-15.185	213.227	141.917	-15.217	353.355	42.428	-13.895	350.674	0.353	-13.933	250.850	119.271	-14.945	319.368	22.420	-14.216
213.511	105.816	-15.206	213.158	141.853	-15.236	353.355	42.428	-13.895	350.683	0.361	-13.918	250.808	119.238	-14.954	319.358	22.431	-14.201
213.486	105.746	-15.216	213.078	141.736	-15.267	353.373	42.411	-13.895	350.674	0.352	-13.933	250.756	119.211	-14.946	319.367	22.438	-14.185
213.452	105.690	-15.240	212.999	141.666	-15.268	353.363	42.444	-13.911	350.674	0.360	-13.902	250.721	119.188	-14.972	319.376	22.444	-14.201
213.422	105.615	-15.200	212.921	141.552	-15.268	353.373	42.427	-13.895	350.674	0.368	-13.933	250.677	119.172	-14.982	319.376	22.444	-14.201
213.387	105.539	-15.224	212.870	141.489	-15.258	353.363	42.436	-13.911	350.665	0.368	-13.917	250.643	119.146	-15.008	319.358	22.444	-14.200
213.343	105.457	-15.231	212.794	141.391	-15.289	353.373	42.427	-13.895	350.665	0.368	-13.917	250.605	119.064	-15.002	319.366	22.460	-14.217
213.321	105.355	-15.209	212.725	141.344	-15.276	353.363	42.444	-13.911	350.666	0.359	-13.916	250.573	119.020	-14.996	319.366	22.460	-14.217
213.276	105.273	-15.216	212.663	141.291	-15.312	353.381	42.436	-13.911	350.648	0.359	-13.917	250.530	118.974	-15.005	319.375	22.475	-14.202
213.240	105.186	-15.240	212.578	141.223	-15.296	353.382	42.419	-13.910	350.656	0.367	-13.901	250.514	118.940	-15.002	319.376	22.466	-14.202
213.208	105.106	-15.232	212.510	141.153	-15.282	353.390	42.428	-13.895	350.656	0.367	-13.901	250.480	118.893	-14.996	319.367	22.481	-14.186
213.164	105.060	-15.270	212.424	141.081	-15.234	353.391	42.426	-13.895	350.656	0.367	-13.901	250.436	118.869	-15.006	319.366	22.483	-14.186
213.131	104.995	-15.263	212.345	141.011	-15.235	353.382	42.419	-13.910	350.648	0.359	-13.916	250.384	118.839	-14.998	319.375	22.481	-14.202
213.091	104.929	-15.238	212.279	140.929	-15.221	353.381	42.436	-13.911	350.648	0.368	-13.916	250.340	118.793	-14.976	319.375	22.490	-14.202
213.065	104.868	-15.248	212.202	140.842	-15.222	353.391	42.426	-13.895	350.648	0.374	-13.916	250.298	118.759	-14.954	319.375	22.489	-14.202
213.024	104.795	-15.223	212.126	140.768	-15.223	353.391	42.426	-13.895	350.648	0.359	-13.916	250.237	118.728	-14.961	319.375	22.497	-14.202
213.001	104.716	-15.202	212.056	140.713	-15.241	353.400	42.420	-13.911	350.639	0.359	-13.900	250.166	118.712	-14.951	319.375	22.497	-14.202
212.973	104.599	-15.161	211.976	140.595	-15.241	353.400	42.420	-13.911	350.639	0.367	-13.900	250.104	118.674	-14.958	319.375	22.503	-14.202
212.931	104.529	-15.137	211.914	140.506	-15.244	353.399	42.435	-13.881	350.656	0.367	-13.901	250.054	118.631	-14.950	319.375	22.513	-14.202
212.881	104.451	-15.126	211.836	140.428	-15.245	353.408	42.435	-13.896	350.639	0.367	-13.900	249.992	118.601	-14.957	319.375	22.506	-14.203
212.848	104.372	-15.118	211.761	140.338	-15.245	353.409	42.420	-13.896	350.639	0.367	-13.900	249.930	118.569	-14.964	319.374	22.521	-14.203
212.816	104.307	-15.111	211.700	140.291	-15.249	353.417	42.420	-13.911	350.639	0.367	-13.900	249.860	118.561	-14.954	319.374	22.515	-14.203
212.782	104.244	-15.103	211.638	140.231	-15.285	353.407	42.438	-13.928	350.639	0.367	-13.900	249.798	118.516	-14.961	319.382	22.531	-14.219
212.756	104.176	-15.113	211.569	140.167	-15.303	353.416	42.437	-13.912	350.647	0.375	-13.917	249.744	118.481	-14.953	319.382	22.546	-14.220
212.732	104.113	-15.092	211.497	140.123	-15.321	353.426	42.429	-13.897	350.630	0.375	-13.885	249.692	118.427	-14.945	319.391	22.530	-14.204
212.704	104.005	-15.101	211.429	140.053	-15.308	353.426	42.429	-13.897	350.620	0.383	-13.901	249.630	118.405	-14.952	319.374	22.530	-14.203
212.651	103.937	-15.123	211.352	139.965	-15.277	353.416	42.437	-13.912	350.630	0.375	-13.916	249.579	118.355	-14.944	319.373	22.539	-14.204
212.617	103.868	-15.115	211.285	139.876	-15.263	353.416	42.439	-13.913	350.638	0.375	-13.901	249.536	118.330	-14.953	319.382	22.546	-14.220
212.564	103.801	-15.136	211.200	139.796	-15.246	353.425	42.438	-13.928	350.621	0.368	-13.901	249.510	118.306	-14.965	319.373	22.554	-14.204
212.531	103.723	-15.129	211.113	139.725	-15.261	353.416	42.446	-13.913	350.630	0.375	-13.916	249.467	118.272	-14.974	319.382	22.555	-14.220
212.507	103.666	-15.139	211.037	139.615	-15.229	353.425	42.438	-13.928	350.630	0.359	-13.916	249.433	118.247	-14.969	319.382	22.554	-14.220
212.476	103.584	-15.131	210.958	139.517	-15.230	353.434	42.422	-13.913	350.621	0.360	-13.900	249.408	118.213	-14.980	319.382	22.555	-14.220
212.441	103.515	-15.154	210.897	139.448	-15.233	353.434	42.422	-13.913	350.621	0.360	-13.900	249.374	118.138	-14.974	319.391	22.545	-14.205
212.417	103.444	-15.164	210.823	139.341	-15.233	353.434	42.429	-13.912	350.621	0.360	-13.900	249.337	118.111	-15.000	319.382	22.555	-14.220
212.385	103.379	-15.156	210.744	139.280	-15.234	353.435	42.414	-13.912	350.621	0.352	-13.900	249.293	118.080	-15.009	319.382	22.554	-14.220
212.347	103.288	-15.181	210.666	139.223	-15.235	353.434	42.422	-13.913	350.604	0.360	-13.899	249.261	118.031	-15.004	319.382	22.555	-14.220
212.321	103.204	-15.190	210.614	139.162	-15.256	353.453	42.406	-13.912	350.604	0.360	-13.899	249.218	117.997	-15.013	319.381	22.570	-14.221
212.278	103.114	-15.197	210.535	139.108	-15.289	353.452	42.430	-13.913	350.604	0.352	-13.899	249.166	117.950	-15.004	319.382	22.568	-14.220
212.242	103.018	-15.220	210.474	139.061	-15.293	353.453	42.406	-13.912	350.604	0.351	-13.899	249.105	117.912	-15.011	319.399	22.596	-14.221
212.217	102.948	-15.230	210.415	138.965	-15.296	353.462	42.405	-13.897	350.604	0.351	-13.899	249.044	117.865	-15.018	319.408	22.597	-14.237
212.184	102.892	-15.223	210.343	138.893	-15.282	353.462	42.406	-13.897	350.595	0.360	-13.883	248.965	117.832	-15.022	319.408	22.594	-14.237
212.159	102.838	-15.233	210.256	138.759	-15.264	353.462	42.405	-13.897	350.595	0.359	-13.883	248.902	117.818	-15.029	319.390	22.612	-14.236
212.124	102.775	-15.257	210.180	138.685	-15.265	353.461	42.421	-13.897	350.586	0.358	-13.898	248.841	117.802	-15.005	319.390	22.611	-14.236
212.102	102.701	-15.235	210.111	138.620	-15.283	353.471	42.413	-13.913	350.586	0.366	-13.867	248.779	117.779	-15.012	319.407	22.621	-14.238
212.088	102.620	-15.230	210.043	138.541	-15.269	353.470	42.422	-13.913	350.586	0.358	-13.867	248.727	117.768	-15.005	319.408	22.619	-14.237
212.038	102.542	-15.219	209.958	138.467	-15.252	353.470	42.422	-13.913	350.586	0.367	-13.898	248.667	117.743	-14.980	319.407	22.628	-14.238
212.005	102.464	-15.212	209.898	138.404	-15.256	353.471	42.414	-13.913	350.586	0.366	-13.867	248.616	117.687	-14.972	319.407	22.628	-14.238
211.971	102.386	-15.204	209.822	138.314	-15.256	353.470	42.422	-13.913	350.578	0.359	-13.882	248.554	117.642	-14.979	319.399	22.627	-14.222
211.935	102.255	-15.196	209.736	138.243	-15.240	353.480	42.413	-13.897	350.568	0.366	-13.867	248.511	117.608	-14.956	319.407	22.627	-14.238
211.903	102.191	-15.188	209.650	138.171	-15.223	353.488	42.414	-13.913	350.577	0.367	-13.883	248.451	117.562	-14.932	319.398	22.636	-14.222
211.869	102.128	-15.181	209.580	138.116	-15.241	353.497	42.421	-13.898	350.577	0.366	-13.883	248.408	117.522	-14.909	319.407	22.636	-14.238
211.828	102.071	-15.156	209.518	138.072	-15.277	353.489	42.421	-13.913	350.568	0.366	-13.867	248.365	117.439	-14.886	319.398	22.636	-14.222
211.804	102.015	-15.166	209.458	138.016	-15.281	353.506	42.414	-13.914	350.569	0.358	-13.866	248.331	117.392	-14.912	319.398	22.642	-14.222
211.761	101.960	-15.173	209.399	137.942	-15.284	353.497	42.420	-13.898	350.560	0.351	-13.882	248.296	117.375	-14.907	319.406	22.646	-14.239
211.728	101.897	-15.166	209.329	137.846	-15.270	353.497	42.415	-13.929	350.551	0.358	-13.865	248.252	117.359	-14.947	319.407	22.642	-14.238
211.667	101.834	-15.170	209.251	137.752	-15.270	353.497	42.422	-13.929	350.560	0.358	-13.881	248.217	117.327	-14.942	319.398	22.644	-14.222
211.618	101.762	-15.128	209.173	137.623	-15.269	353.506	42.421	-13.914	350.551	0.357	-13.865	248.191	117.312	-14.954	319.406	22.651	-14.238
211.575	101.692	-15.134	209.095	137.560	-15.270	353.497	42.415	-13.929	350.542	0.365	-13.850	248.146	117.311	-14.995	319.398	22.645	-14.222
211.546	101.586	-15.094	209.035	137.504	-15.274	353.506	42.415	-13.914	350.550	0.374	-13.867	248.093	117.287	-15.018	319.397	22.661	-14.254
211.521	101.508	-15.104	208.966	137.433	-15.292	353.506	42.430	-13.914	350.542	0.366	-13.881	248.039	117.275	-15.074	319.397	22.661	-14.254
211.488	101.438	-15.097	208.897	137.384	-15.310	353.506	42.422	-13.914	350.542	0.366	-13.881	247.966	117.228	-15.095	319.397	22.667	-14.254
211.445	101.390	-15.103	208.830	137.280	-15.296	353.506	42.430	-13.914	350.533	0.365	-13.865	247.912	117.200	-15.119	319.396	22.670	-14.254
211.410	101.337	-15.128	208.736	137.229	-15.262	353.514	42.431	-13.930	350.542	0.374	-13.881	247.833	117.161	-15.123	319.397	22.676	-14.254
211.377	101.274	-15.120	208.657	137.153	-15.262	353.496	42.447	-13.930	350.533	0.366	-13.865	247.782	117.126	-15.115	319.396	22.685	-14.255
211.342	101.220	-15.144	208.562	137.074	-15.260	353.514	42.439	-13.930	350.542	0.366	-13.881	247.729	117.080	-15.107	319.397	22.677	-14.254
211.291	101.142	-15.134	208.493	137.012	-15.246	353.514	42.431	-13.930	350.533	0.365	-13.865	247.670	117.037	-15.082	319.396	22.685	-14.255
211.272	101.033	-15.161	208.433	136.971	-15.219	353.523	42.430	-13.915	350.533	0.365	-13.865	247.609	117.027	-15.058	319.405	22.685	-14.240
211.246	100.943	-15.170	208.374	136.891	-15.254	353.523	42.430	-13.915	350.533	0.374	-13.866	247.550	116.984	-15.033	319.405	22.685	-14.240
211.202	100.877	-15.177	208.315	136.818	-15.257	353.522	42.448	-13.947	350.524	0.373	-13.850	247.508	116.958	-15.011	319.396	22.685	-14.255
211.176	100.800	-15.187	208.245	136.706	-15.242	353.532	42.447	-13.931	350.533	0.374	-13.866	247.457	116.908	-15.002	319.387	22.693	-14.239
211.165	100.715	-15.150	208.156	136.596	-15.256	353.532	42.447	-13.931	350.524	0.389	-13.881	247.417	116.848	-14.948	319.405	22.692	-14.239
211.131	100.653	-15.174	208.089	136.514	-15.242	353.532	42.438	-13.930	350.524	0.389	-13.881	247.377	116.795	-14.925	319.396	22.699	-14.224
211.105	100.607	-15.184	208.028	136.451	-15.246	353.541	42.446	-13.916	350.524	0.380	-13.850	247.334	116.748	-14.903	319.404	22.709	-14.240
211.071	100.544	-15.208	207.958	136.390	-15.264	353.541	42.438	-13.915	350.515	0.381	-13.865	247.273	116.723	-14.878	319.404	22.716	-14.240
211.039	100.471	-15.200	207.892	136.299	-15.281	353.541	42.446	-13.916	350.515	0.389	-13.865	247.230	116.698	-14.856	319.414	22.715	-14.225
211.005	100.402	-15.193	207.822	136.244	-15.299	353.541	42.453	-13.915	350.524	0.395	-13.850	247.176	116.670	-14.880	319.395	22.718	-14.225
210.973	100.331	-15.185	207.761	136.190	-15.303	353.549	42.440	-13.932	350.514	0.397	-13.866	247.132	116.624	-14.889	319.404	22.709	-14.240
210.955	100.243	-15.181	207.675	136.125	-15.286	353.558	42.447	-13.916	350.524	0.396	-13.850	247.088	116.602	-14.898	319.414	22.715	-14.225
210.928	100.126	-15.190	207.597	136.049	-15.287	353.558	42.440	-13.916	350.514	0.397	-13.866	247.038	116.527	-14.938	319.413	22.717	-14.226
210.884	100.057	-15.197	207.518	135.988	-15.287	353.558	42.447	-13.916	350.515	0.396	-13.865	246.974	116.523	-14.977	319.413	22.724	-14.226
210.851	100.002	-15.190	207.443	135.904	-15.256	353.549	42.440	-13.932	350.515	0.389	-13.865	246.931	116.483	-15.017	319.413	22.724	-14.226
210.826	99.932	-15.199	207.375	135.825	-15.242	353.558	42.446	-13.916	350.514	0.396	-13.866	246.867	116.493	-15.056	319.412	22.726	-14.226
210.791	99.887	-15.224	207.298	135.753	-15.242	353.558	42.440	-13.916	350.497	0.388	-13.865	246.813	116.472	-15.111	319.403	22.727	-14.241
210.750	99.814	-15.199	207.237	135.675	-15.277	353.567	42.440	-13.932	350.497	0.389	-13.866	246.770	116.447	-15.120	319.412	22.727	-14.257
210.715	99.754	-15.223	207.150	135.526	-15.227	353.566	42.441	-13.933	350.506	0.396	-13.850	246.726	116.422	-15.129	319.403	22.727	-14.241
210.672	99.684	-15.230	207.080	135.458	-15.245	353.567	42.440	-13.932	350.497	0.389	-13.866	246.666	116.403	-15.136	319.403	22.727	-14.241
210.651	99.570	-15.207	207.012	135.393	-15.231	353.566	42.441	-13.933	350.497	0.389	-13.866	246.615	116.361	-15.128	319.403	22.735	-14.242
210.584	99.498	-15.161	206.925	135.316	-15.245	353.574	42.450	-13.949	350.497	0.389	-13.866	246.545	116.306	-15.117	319.404	22.733	-14.241
210.551	99.420	-15.154	206.857	135.234	-15.263	353.567	42.433	-13.932	350.497	0.389	-13.866	246.503	116.257	-15.094	319.403	22.742	-14.242
210.510	99.348	-15.129	206.787	135.188	-15.281	353.567	42.433	-13.932	350.497	0.381	-13.865	246.461	116.215	-15.072	319.403	22.736	-14.242
210.467	99.302	-15.136	206.727	135.131	-15.285	353.575	42.434	-13.948	350.497	0.381	-13.865	246.392	116.174	-15.030	319.403	22.751	-14.242
210.432	99.226	-15.160	206.648	135.055	-15.316	353.566	42.450	-13.933	350.497	0.381	-13.865	246.342	116.131	-14.991	319.403	22.736	-14.242
210.406	99.151	-15.170	206.567	134.976	-15.316	353.576	42.433	-13.917	350.488	0.389	-13.850	246.299	116.091	-14.968	319.412	22.744	-14.227
210.362	99.060	-15.176	206.507	134.907	-15.288	353.566	42.441	-13.933	350.497	0.381	-13.865	246.248	116.065	-14.960	319.403	22.751	-14.242
210.320	99.005	-15.183	206.420	134.759	-15.269	353.584	42.434	-13.933	350.479	0.389	-13.865	246.188	116.031	-14.936	319.403	22.751	-14.242
210.287	98.934	-15.175	206.343	134.693	-15.270	353.584	42.434	-13.933	350.479	0.397	-13.865	246.137	115.996	-14.896	319.403	22.751	-14.242
210.245	98.879	-15.151	206.295	134.608	-15.259	353.584	42.449	-13.933	350.479	0.397	-13.865	246.075	115.973	-14.903	319.402	22.760	-14.242
